"Time","coupling.w","coupling.tau","multiSensor.i","multiSensor.v"
0,0,0,0,100
9.9999997e-05,9.9340731e-09,-2.884602e-05,8.2120314e-06,100
0.00019999999,3.7300527e-08,-5.2467323e-05,2.7168349e-05,100
0.00030000001,7.8939209e-08,-7.1807321e-05,5.0888397e-05,100
0.00039999999,1.3226256e-07,-8.7642351e-05,7.5805292e-05,100
0.00050000002,1.9515186e-07,-0.00010060801,9.988997e-05,100
0.00060000003,2.6587233e-07,-0.00011122469,0.00012207862,100
0.00069999998,3.4300353e-07,-0.00011991843,0.00014190072,100
0.00079999998,4.2538238e-07,-0.00012703802,0.00015923921,100
0.00089999998,5.120562e-07,-0.00013286909,0.00017417873,100
0.001,6.0224488e-07,-0.0001376455,0.00018690874,100
0.0011,6.9530984e-07,-0.00014155867,0.00019766555,100
0.0012000001,7.9072777e-07,-0.0001447653,0.00020669647,100
0.0013,8.8807025e-07,-0.00014739374,0.00021424062,100
0.0014,9.8698627e-07,-0.00014954904,0.0002205179,100
0.0015,1.0871884e-06,-0.00015131722,0.00022572483,100
0.0016,1.1884409e-06,-0.00015276868,0.00023003313,100
0.0017,1.2905509e-06,-0.00015396108,0.00023359079,100
0.0018,1.3933601e-06,-0.00015494165,0.00023652391,100
0.0019,1.4967389e-06,-0.000155749,0.00023893896,100
0.0020000001,1.6005808e-06,-0.0001564148,0.00024092536,100
0.0020999999,1.7047987e-06,-0.00015696493,0.00024255783,100
0.0022,1.8093211e-06,-0.00015742058,0.00024389838,100
0.0023000001,1.9140894e-06,-0.00015779911,0.00024499852,100
0.0024000001,2.0190546e-06,-0.00015811478,0.00024590114,100
0.0024999999,2.1241776e-06,-0.00015837925,0.00024664149,100
0.0026,2.2294253e-06,-0.00015860202,0.00024724848,100
0.0027000001,2.3347714e-06,-0.00015879089,0.00024774604,100
0.0027999999,2.4401932e-06,-0.00015895223,0.00024815375,100
0.0029,2.5456727e-06,-0.00015909126,0.00024848781,100
0.003,2.6511946e-06,-0.00015921227,0.0002487615,100
0.0031000001,2.7567464e-06,-0.00015931876,0.00024898569,100
0.0031999999,2.8623176e-06,-0.0001594136,0.00024916936,100
0.0033,2.9678997e-06,-0.00015949913,0.00024931977,100
0.0034,3.0734852e-06,-0.00015957726,0.00024944296,100
0.0035000001,3.1790682e-06,-0.00015964957,0.00024954384,100
0.0035999999,3.2846433e-06,-0.00015971735,0.00024962646,100
0.0037,3.3902063e-06,-0.00015978164,0.0002496941,100
0.0038000001,3.4957534e-06,-0.00015984332,0.00024974952,100
0.0038999999,3.6012814e-06,-0.00015990307,0.00024979489,100
0.0040000002,3.7067873e-06,-0.00015996146,0.000249832,100
0.0041,3.8122691e-06,-0.00016001896,0.00024986232,100
0.0041999999,3.9177244e-06,-0.00016007596,0.00024988712,100
0.0043000001,4.0231516e-06,-0.00016013278,0.00024990737,100
0.0044,4.1285484e-06,-0.00016018969,0.00024992402,100
0.0044999998,4.2339138e-06,-0.00016024688,0.00024993761,100
0.0046000001,4.3392461e-06,-0.00016030455,0.00024994879,100
0.0046999999,4.4445437e-06,-0.00016036282,0.00024995793,100
0.0048000002,4.5498059e-06,-0.0001604218,0.00024996544,100
0.0049000001,4.6550317e-06,-0.00016048159,0.00024997164,100
0.0049999999,4.7602193e-06,-0.00016054226,0.0002499767,100
0.0051000002,4.8653683e-06,-0.00016060386,0.00024998089,100
0.0052,4.9704772e-06,-0.00016066643,0.0002499843,100
0.0052999998,5.0755457e-06,-0.00016073002,0.00024998709,100
0.0054000001,5.1805728e-06,-0.00016079465,0.00024998939,100
0.0055,5.2855567e-06,-0.00016086036,0.00024999125,100
0.0055999998,5.3904973e-06,-0.00016092716,0.00024999279,100
0.0057000001,5.4953939e-06,-0.00016099506,0.00024999405,100
0.0057999999,5.600245e-06,-0.00016106409,0.00024999509,100
0.0059000002,5.7050506e-06,-0.00016113423,0.00024999594,100
0.0060000001,5.809809e-06,-0.00016120552,0.00024999664,100
0.0060999999,5.9145195e-06,-0.00016127795,0.00024999722,100
0.0062000002,6.0191819e-06,-0.00016135151,0.00024999771,100
0.0063,6.1237952e-06,-0.0001614262,0.00024999809,100
0.0063999998,6.2283584e-06,-0.00016150204,0.00024999841,100
0.0065000001,6.3328707e-06,-0.00016157901,0.00024999867,100
0.0066,6.4373312e-06,-0.00016165712,0.00024999888,100
0.0066999998,6.5417398e-06,-0.00016173637,0.00024999905,100
0.0068000001,6.6460948e-06,-0.00016181677,0.0002499992,100
0.0068999999,6.7503961e-06,-0.00016189828,0.00024999931,100
0.0070000002,6.8546428e-06,-0.00016198092,0.0002499994,100
0.0071,6.9588336e-06,-0.00016206469,0.00024999946,100
0.0071999999,7.062969e-06,-0.00016214958,0.00024999949,100
0.0073000002,7.167047e-06,-0.00016223558,0.00024999952,100
0.0074,7.2710673e-06,-0.0001623227,0.00024999952,100
0.0074999998,7.3750289e-06,-0.00016241093,0.00024999955,100
0.0076000001,7.4789318e-06,-0.00016250028,0.0002499996,100
0.0077,7.5827747e-06,-0.00016259072,0.00024999963,100
0.0077999998,7.6865563e-06,-0.00016268226,0.00024999966,100
0.0078999996,7.7902778e-06,-0.0001627749,0.00024999969,100
0.0080000004,7.8939356e-06,-0.00016286863,0.00024999972,100
0.0081000002,7.9975316e-06,-0.00016296344,0.00024999972,100
0.0082,8.1010639e-06,-0.00016305933,0.00024999975,100
0.0082999999,8.2045317e-06,-0.00016315631,0.00024999978,100
0.0083999997,8.3079349e-06,-0.00016325434,0.00024999981,100
0.0085000005,8.4112717e-06,-0.00016335346,0.00024999981,100
0.0086000003,8.514543e-06,-0.00016345363,0.00024999981,100
0.0087000001,8.617747e-06,-0.00016355485,0.00024999984,100
0.0088,8.7208828e-06,-0.00016365714,0.00024999984,100
0.0088999998,8.8239494e-06,-0.00016376047,0.00024999984,100
0.0089999996,8.9269479e-06,-0.00016386485,0.00024999984,100
0.0091000004,9.0298763e-06,-0.00016397027,0.00024999984,100
0.0092000002,9.1327338e-06,-0.00016407672,0.00024999984,100
0.0093,9.2355194e-06,-0.00016418421,0.00024999984,100
0.0093999999,9.3382341e-06,-0.00016429272,0.00024999984,100
0.0094999997,9.4408751e-06,-0.00016440226,0.00024999984,100
0.0096000005,9.5434434e-06,-0.00016451282,0.00024999984,100
0.0097000003,9.645938e-06,-0.00016462439,0.00024999984,100
0.0098000001,9.7483571e-06,-0.00016473698,0.00024999984,100
0.0098999999,9.8507007e-06,-0.00016485057,0.00024999984,100
0.0099999998,9.9529689e-06,-0.00016496517,0.00024999984,100
0.0101,1.0055161e-05,-0.00016508075,0.00024999984,100
0.0102,1.0157274e-05,-0.00016519734,0.00024999984,100
0.0103,1.0259309e-05,-0.00016531491,0.00024999984,100
0.0104,1.0361267e-05,-0.00016543346,0.00024999984,100
0.0105,1.0463144e-05,-0.00016555301,0.00024999984,100
0.0106,1.0564942e-05,-0.00016567351,0.00024999984,100
0.0107,1.0666659e-05,-0.00016579501,0.00024999984,100
0.0108,1.0768294e-05,-0.00016591744,0.00024999984,100
0.0109,1.0869849e-05,-0.00016604086,0.00024999984,100
0.011,1.097132e-05,-0.00016616523,0.00024999984,100
0.0111,1.1072708e-05,-0.00016629056,0.00024999984,100
0.0112,1.1174012e-05,-0.00016641684,0.00024999984,100
0.0113,1.1275231e-05,-0.00016654405,0.00024999984,100
0.0114,1.1376365e-05,-0.00016667221,0.00024999984,100
0.0115,1.1477415e-05,-0.00016680131,0.00024999984,100
0.0116,1.1578377e-05,-0.00016693134,0.00024999984,100
0.0117,1.1679252e-05,-0.0001670623,0.00024999984,100
0.0118,1.1780039e-05,-0.00016719419,0.00024999984,100
0.0119,1.1880739e-05,-0.00016732699,0.00024999984,100
0.012,1.1981349e-05,-0.0001674607,0.00024999984,100
0.0121,1.208187e-05,-0.00016759534,0.00024999984,100
0.0122,1.2182302e-05,-0.00016773088,0.00024999984,100
0.0123,1.2282642e-05,-0.00016786731,0.00024999984,100
0.0124,1.2382891e-05,-0.00016800466,0.00024999984,100
0.0125,1.2483049e-05,-0.00016814288,0.00024999984,100
0.0126,1.2583114e-05,-0.00016828201,0.00024999984,100
0.0127,1.2683086e-05,-0.00016842202,0.00024999984,100
0.0128,1.2782963e-05,-0.00016856291,0.00024999984,100
0.0129,1.2882748e-05,-0.00016870469,0.00024999984,100
0.013,1.2982437e-05,-0.00016884733,0.00024999984,100
0.0131,1.3082031e-05,-0.00016899084,0.00024999984,100
0.0132,1.3181529e-05,-0.00016913521,0.00024999984,100
0.0133,1.328093e-05,-0.00016928045,0.00024999984,100
0.0134,1.3380234e-05,-0.00016942654,0.00024999984,100
0.0135,1.347944e-05,-0.0001695735,0.00024999984,100
0.0136,1.3578549e-05,-0.00016972129,0.00024999984,100
0.0137,1.3677558e-05,-0.00016986992,0.00024999984,100
0.0138,1.3776468e-05,-0.0001700194,0.00024999984,100
0.0139,1.3875278e-05,-0.00017016972,0.00024999984,100
0.014,1.3973988e-05,-0.00017032087,0.00024999984,100
0.0141,1.4072596e-05,-0.00017047283,0.00024999984,100
0.0142,1.4171103e-05,-0.00017062564,0.00024999984,100
0.0143,1.4269508e-05,-0.00017077925,0.00024999984,100
0.0144,1.4367811e-05,-0.00017093369,0.00024999984,100
0.0145,1.446601e-05,-0.00017108893,0.00024999984,100
0.0146,1.4564104e-05,-0.00017124499,0.00024999984,100
0.0147,1.4662095e-05,-0.00017140183,0.00024999984,100
0.0148,1.4759981e-05,-0.00017155948,0.00024999984,100
0.0149,1.4857762e-05,-0.00017171794,0.00024999984,100
0.015,1.4955437e-05,-0.00017187717,0.00024999984,100
0.0151,1.5053005e-05,-0.00017203719,0.00024999984,100
0.0152,1.5150466e-05,-0.00017219801,0.00024999984,100
0.0153,1.5247821e-05,-0.00017235959,0.00024999984,100
0.0154,1.5345067e-05,-0.00017252195,0.00024999984,100
0.0155,1.5442203e-05,-0.00017268509,0.00024999984,100
0.0156,1.5539232e-05,-0.00017284899,0.00024999984,100
0.015699999,1.5636151e-05,-0.00017301364,0.00024999984,100
0.015799999,1.573296e-05,-0.00017317907,0.00024999984,100
0.015900001,1.5829659e-05,-0.00017334524,0.00024999984,100
0.016000001,1.5926245e-05,-0.00017351216,0.00024999984,100
0.016100001,1.6022723e-05,-0.00017367983,0.00024999984,100
0.0162,1.6119086e-05,-0.00017384824,0.00024999984,100
0.0163,1.6215337e-05,-0.00017401739,0.00024999984,100
0.0164,1.6311475e-05,-0.00017418728,0.00024999984,100
0.0165,1.6407501e-05,-0.00017435789,0.00024999981,100
0.0166,1.6503411e-05,-0.00017452924,0.00024999981,100
0.0167,1.6599208e-05,-0.0001747013,0.00024999981,100
0.016799999,1.6694888e-05,-0.00017487409,0.00024999981,100
0.016899999,1.6790455e-05,-0.00017504758,0.00024999981,100
0.017000001,1.6885904e-05,-0.00017522179,0.00024999981,100
0.017100001,1.6981237e-05,-0.00017539671,0.00024999981,100
0.017200001,1.7076454e-05,-0.00017557232,0.00024999981,100
0.0173,1.7171555e-05,-0.00017574865,0.00024999981,100
0.0174,1.7266537e-05,-0.00017592566,0.00024999981,100
0.0175,1.7361399e-05,-0.00017610336,0.00024999981,100
0.0176,1.7456145e-05,-0.00017628176,0.00024999981,100
0.0177,1.755077e-05,-0.00017646083,0.00024999981,100
0.0178,1.7645276e-05,-0.00017664058,0.00024999981,100
0.017899999,1.7739661e-05,-0.00017682101,0.00024999981,100
0.017999999,1.7833927e-05,-0.00017700212,0.00024999981,100
0.018100001,1.7928072e-05,-0.00017718389,0.00024999981,100
0.018200001,1.8022094e-05,-0.00017736632,0.00024999981,100
0.018300001,1.8115996e-05,-0.00017754942,0.00024999981,100
0.0184,1.8209776e-05,-0.00017773316,0.00024999981,100
0.0185,1.8303432e-05,-0.00017791757,0.00024999981,100
0.0186,1.8396964e-05,-0.00017810262,0.00024999981,100
0.0187,1.8490375e-05,-0.0001782883,0.00024999981,100
0.0188,1.858366e-05,-0.00017847464,0.00024999981,100
0.0189,1.8676821e-05,-0.00017866162,0.00024999981,100
0.018999999,1.8769857e-05,-0.00017884922,0.00024999981,100
0.019099999,1.8862767e-05,-0.00017903747,0.00024999981,100
0.019200001,1.8955552e-05,-0.00017922634,0.00024999981,100
0.019300001,1.9048211e-05,-0.00017941582,0.00024999981,100
0.019400001,1.9140743e-05,-0.00017960592,0.00024999981,100
0.0195,1.923315e-05,-0.00017979664,0.00024999981,100
0.0196,1.9325427e-05,-0.00017998797,0.00024999981,100
0.0197,1.9417579e-05,-0.00018017989,0.00024999981,100
0.0198,1.9509602e-05,-0.00018037244,0.00024999981,100
0.0199,1.9601495e-05,-0.00018056558,0.00024999981,100
0.02,1.969326e-05,-0.00018075931,0.00024999981,100
0.020099999,1.9784895e-05,-0.00018095363,0.00024999981,100
0.020199999,1.9876401e-05,-0.00018114856,0.00024999981,100
0.020300001,1.9967776e-05,-0.00018134405,0.00024999981,100
0.020400001,2.0059022e-05,-0.00018154013,0.00024999981,100
0.020500001,2.0150135e-05,-0.00018173679,0.00024999981,100
0.0206,2.0241119e-05,-0.00018193403,0.00024999981,100
0.0207,2.0331971e-05,-0.00018213181,0.00024999981,100
0.0208,2.0422689e-05,-0.00018233019,0.00024999981,100
0.0209,2.0513276e-05,-0.00018252911,0.00024999981,100
0.021,2.0603729e-05,-0.0001827286,0.00024999981,100
0.0211,2.0694049e-05,-0.00018292865,0.00024999981,100
0.021199999,2.0784237e-05,-0.00018312925,0.00024999981,100
0.021299999,2.0874291e-05,-0.00018333038,0.00024999981,100
0.021400001,2.0964209e-05,-0.00018353207,0.00024999981,100
0.021500001,2.1053995e-05,-0.0001837343,0.00024999981,100
0.021600001,2.1143644e-05,-0.00018393707,0.00024999981,100
0.0217,2.1233158e-05,-0.00018414036,0.00024999981,100
0.0218,2.1322536e-05,-0.00018434419,0.00024999981,100
0.0219,2.1411777e-05,-0.00018454855,0.00024999981,100
0.022,2.1500884e-05,-0.00018475343,0.00024999981,100
0.0221,2.1589853e-05,-0.00018495882,0.00024999981,100
0.0222,2.1678685e-05,-0.00018516472,0.00024999981,100
0.022299999,2.1767379e-05,-0.00018537116,0.00024999981,100
0.022399999,2.1855936e-05,-0.00018557809,0.00024999981,100
0.022500001,2.1944354e-05,-0.00018578552,0.00024999981,100
0.022600001,2.2032635e-05,-0.00018599346,0.00024999981,100
0.022700001,2.2120776e-05,-0.0001862019,0.00024999981,100
0.0228,2.2208778e-05,-0.00018641082,0.00024999981,100
0.0229,2.2296641e-05,-0.00018662025,0.00024999981,100
0.023,2.2384364e-05,-0.00018683015,0.00024999981,100
0.0231,2.2471946e-05,-0.00018704054,0.00024999981,100
0.0232,2.2559389e-05,-0.00018725141,0.00024999981,100
0.0233,2.2646691e-05,-0.00018746276,0.00024999981,100
0.023399999,2.2733851e-05,-0.00018767458,0.00024999981,100
0.023499999,2.282087e-05,-0.00018788688,0.00024999981,100
0.023600001,2.2907749e-05,-0.00018809963,0.00024999981,100
0.023700001,2.2994484e-05,-0.00018831286,0.00024999981,100
0.023800001,2.3081077e-05,-0.00018852654,0.00024999981,100
0.0239,2.3167528e-05,-0.00018874067,0.00024999981,100
0.024,2.3253835e-05,-0.00018895525,0.00024999981,100
0.0241,2.3340001e-05,-0.0001891703,0.00024999981,100
0.0242,2.3426021e-05,-0.00018938577,0.00024999981,100
0.0243,2.3511899e-05,-0.00018960171,0.00024999981,100
0.0244,2.3597631e-05,-0.00018981806,0.00024999981,100
0.024499999,2.368322e-05,-0.00019003486,0.00024999981,100
0.024599999,2.3768665e-05,-0.00019025209,0.00024999981,100
0.024700001,2.3853963e-05,-0.00019046974,0.00024999981,100
0.024800001,2.3939117e-05,-0.00019068783,0.00024999981,100
0.024900001,2.4024126e-05,-0.00019090634,0.00024999981,100
0.025,2.4108989e-05,-0.00019112526,0.00024999981,100
0.0251,2.4193705e-05,-0.0001913446,0.00024999981,100
0.0252,2.4278275e-05,-0.00019156435,0.00024999981,100
0.0253,2.4362698e-05,-0.00019178451,0.00024999981,100
0.0254,2.4446976e-05,-0.00019200507,0.00024999981,100
0.0255,2.4531106e-05,-0.00019222604,0.00024999981,100
0.025599999,2.4615087e-05,-0.00019244741,0.00024999981,100
0.025699999,2.4698922e-05,-0.00019266916,0.00024999981,100
0.025800001,2.4782608e-05,-0.00019289131,0.00024999981,100
0.025900001,2.4866145e-05,-0.00019311385,0.00024999981,100
0.026000001,2.4949535e-05,-0.00019333677,0.00024999981,100
0.0261,2.5032776e-05,-0.00019356007,0.00024999981,100
0.0262,2.5115867e-05,-0.00019378377,0.00024999981,100
0.0263,2.5198809e-05,-0.00019400782,0.00024999981,100
0.0264,2.5281603e-05,-0.00019423226,0.00024999981,100
0.0265,2.5364247e-05,-0.00019445705,0.00024999981,100
0.0266,2.544674e-05,-0.00019468222,0.00024999981,100
0.026699999,2.5529083e-05,-0.00019490776,0.00024999981,100
0.026799999,2.5611276e-05,-0.00019513363,0.00024999981,100
0.026900001,2.5693318e-05,-0.00019535988,0.00024999981,100
0.027000001,2.5775209e-05,-0.00019558647,0.00024999981,100
0.027100001,2.5856947e-05,-0.00019581342,0.00024999981,100
0.0272,2.5938536e-05,-0.00019604071,0.00024999981,100
0.0273,2.6019974e-05,-0.00019626835,0.00024999981,100
0.0274,2.6101261e-05,-0.00019649633,0.00024999981,100
0.0275,2.6182395e-05,-0.00019672465,0.00024999981,100
0.0276,2.6263377e-05,-0.00019695329,0.00024999981,100
0.0277,2.6344205e-05,-0.00019718228,0.00024999981,100
0.027799999,2.6424883e-05,-0.00019741159,0.00024999981,100
0.027899999,2.6505408e-05,-0.00019764122,0.00024999978,100
0.028000001,2.6585778e-05,-0.00019787117,0.00024999978,100
0.028100001,2.6665995e-05,-0.00019810144,0.00024999978,100
0.028200001,2.6746058e-05,-0.00019833203,0.00024999978,100
0.0283,2.6825968e-05,-0.00019856292,0.00024999978,100
0.0284,2.6905724e-05,-0.00019879412,0.00024999978,100
0.0285,2.6985324e-05,-0.00019902563,0.00024999978,100
0.0286,2.7064771e-05,-0.00019925744,0.00024999978,100
0.0287,2.7144062e-05,-0.00019948954,0.00024999978,100
0.0288,2.7223199e-05,-0.00019972195,0.00024999978,100
0.028899999,2.730218e-05,-0.00019995464,0.00024999978,100
0.028999999,2.7380998e-05,-0.0002001875,0.00024999978,100
0.029100001,2.7459655e-05,-0.00020042055,0.00024999978,100
0.029200001,2.7538157e-05,-0.00020065387,0.00024999978,100
0.029300001,2.7616503e-05,-0.00020088747,0.00024999978,100
0.0294,2.7694692e-05,-0.00020112135,0.00024999978,100
0.0295,2.7772727e-05,-0.00020135552,0.00024999978,100
0.0296,2.7850605e-05,-0.00020158997,0.00024999978,100
0.0297,2.7928329e-05,-0.00020182469,0.00024999978,100
0.0298,2.8005894e-05,-0.00020205969,0.00024999978,100
0.029899999,2.8083305e-05,-0.00020229498,0.00024999978,100
0.029999999,2.8160561e-05,-0.00020253054,0.00024999978,100
0.030099999,2.823766e-05,-0.00020276639,0.00024999978,100
0.030200001,2.8314604e-05,-0.00020300251,0.00024999978,100
0.030300001,2.8391392e-05,-0.00020323892,0.00024999978,100
0.030400001,2.8468025e-05,-0.00020347559,0.00024999978,100
0.0305,2.85445e-05,-0.00020371257,0.00024999978,100
0.0306,2.862082e-05,-0.00020394981,0.00024999978,100
0.0307,2.8696973e-05,-0.00020418712,0.00024999978,100
0.0308,2.8772958e-05,-0.00020442449,0.00024999978,100
0.0309,2.8848784e-05,-0.00020466209,0.00024999978,100
0.030999999,2.8924454e-05,-0.00020489994,0.00024999978,100
0.031099999,2.8999964e-05,-0.00020513801,0.00024999978,100
0.031199999,2.9075316e-05,-0.00020537633,0.00024999978,100
0.031300001,2.9150509e-05,-0.00020561488,0.00024999978,100
0.031399999,2.9225544e-05,-0.00020585366,0.00024999978,100
0.031500001,2.9300423e-05,-0.00020609268,0.00024999978,100
0.031599998,2.9375142e-05,-0.00020633193,0.00024999978,100
0.0317,2.9449702e-05,-0.00020657141,0.00024999978,100
0.031800002,2.9524104e-05,-0.00020681114,0.00024999978,100
0.0319,2.9598348e-05,-0.00020705108,0.00024999978,100
0.032000002,2.9672434e-05,-0.00020729128,0.00024999978,100
0.032099999,2.9746361e-05,-0.0002075317,0.00024999978,100
0.032200001,2.982013e-05,-0.00020777236,0.00024999978,100
0.032299999,2.9893741e-05,-0.00020801325,0.00024999978,100
0.032400001,2.9967179e-05,-0.00020825404,0.00024999978,100
0.032499999,3.0040443e-05,-0.00020849463,0.00024999978,100
0.032600001,3.0113542e-05,-0.00020873538,0.00024999978,100
0.032699998,3.0186482e-05,-0.00020897627,0.00024999978,100
0.0328,3.0259258e-05,-0.00020921732,0.00024999978,100
0.032900002,3.0331874e-05,-0.00020945852,0.00024999978,100
0.033,3.0404328e-05,-0.00020969988,0.00024999978,100
0.033100002,3.047662e-05,-0.00020994138,0.00024999978,100
0.033199999,3.0548748e-05,-0.00021018305,0.00024999978,100
0.033300001,3.0620718e-05,-0.00021042487,0.00024999978,100
0.033399999,3.0692525e-05,-0.00021066684,0.00024999978,100
0.033500001,3.0764171e-05,-0.00021090895,0.00024999978,100
0.033599999,3.0835654e-05,-0.00021115123,0.00024999978,100
0.0337,3.0906976e-05,-0.00021139365,0.00024999978,100
0.033799998,3.0978135e-05,-0.00021163623,0.00024999978,100
0.0339,3.1049134e-05,-0.00021187897,0.00024999978,100
0.034000002,3.1119973e-05,-0.00021212186,0.00024999978,100
0.0341,3.1190648e-05,-0.0002123649,0.00024999978,100
0.034200002,3.1261163e-05,-0.00021260809,0.00024999978,100
0.034299999,3.1331514e-05,-0.00021285143,0.00024999978,100
0.034400001,3.1401705e-05,-0.00021309494,0.00024999978,100
0.034499999,3.1471733e-05,-0.00021333859,0.00024999978,100
0.034600001,3.15416e-05,-0.00021358239,0.00024999978,100
0.034699999,3.1611304e-05,-0.00021382635,0.00024999978,100
0.0348,3.1680847e-05,-0.00021407047,0.00024999978,100
0.034899998,3.1750231e-05,-0.00021431473,0.00024999978,100
0.035,3.1819451e-05,-0.00021455916,0.00024999978,100
0.035100002,3.188851e-05,-0.00021480373,0.00024999978,100
0.0352,3.1957406e-05,-0.00021504845,0.00024999978,100
